Data from NS20250604PP_Cbi1_50x_CarbonTape_Reflection_6.txt Node
Date: Tue Sep 30 16:07:59 CEST 2025
User: SchwarzN
Spectrometer: QEP00228
Trigger mode: 4
Integration Time (sec): 4.200000E-2
Scans to average: 10
Electric dark correction enabled: true
Nonlinearity correction enabled: false
Boxcar width: 0
XAxis mode: Wavelengths
Number of Pixels in Spectrum: 1044
>>>>>Begin Spectral Data<<<<<
197.905	-1825
198.705	2175
199.505	245
200.306	286.11
201.106	4.42
201.906	7.13
202.706	7.56
203.506	7.21
204.306	7.44
205.106	9.85
205.906	8.13
206.706	4.94
207.505	9.17
208.305	10.91
209.104	9.84
209.904	10.44
210.703	12.63
211.503	9.52
212.302	10.05
213.101	15.03
213.9	11.42
214.699	3.66
215.498	10.75
216.297	8.48
217.096	7.78
217.895	9.3
218.694	9.14
219.492	8.99
220.291	12.45
221.089	9.77
221.888	10.21
222.686	9.4
223.484	6.79
224.283	5.88
225.081	5.33
225.879	8.91
226.677	4.29
227.475	7.03
228.273	6.77
229.071	8.2
229.868	14.15
230.666	12.52
231.464	6.33
232.261	6.4
233.059	11.88
233.856	9.58
234.654	8.96
235.451	9.94
236.248	8.52
237.045	11.89
237.842	7.55
238.639	8.59
239.436	7.81
240.233	8.59
241.03	4.79
241.827	6.49
242.623	8.73
243.42	8.66
244.216	6.93
245.013	6.49
245.809	7.2
246.605	11.24
247.402	13.58
248.198	9.35
248.994	12.64
249.79	11.93
250.586	5.32
251.382	9.61
252.178	8.82
252.973	13.24
253.769	8.73
254.565	6
255.36	8.36
256.156	10.98
256.951	9.18
257.746	7.43
258.542	9.32
259.337	10.57
260.132	8.97
260.927	7.43
261.722	11.63
262.517	7.31
263.312	7.37
264.107	7.44
264.901	2.68
265.696	7.64
266.491	9.89
267.285	8.42
268.08	5.83
268.874	7.86
269.668	8.49
270.463	3.33
271.257	8.88
272.051	10.17
272.845	2.27
273.639	6.83
274.433	9.59
275.226	11.39
276.02	10.16
276.814	8.96
277.607	10.59
278.401	7.81
279.194	9.63
279.988	9.58
280.781	10.54
281.574	5.93
282.368	12.25
283.161	9.85
283.954	8.96
284.747	11.67
285.54	8.2
286.332	11.25
287.125	7.82
287.918	9.37
288.711	8.53
289.503	9.62
290.296	9.59
291.088	7.68
291.88	7.36
292.673	8.04
293.465	8.04
294.257	11.38
295.049	8.33
295.841	8.95
296.633	5.99
297.425	11.1
298.217	9.52
299.008	10.42
299.8	7
300.591	9.97
301.383	10.96
302.174	5.16
302.966	7.5
303.757	8.1
304.548	8.11
305.339	9.5
306.13	8.17
306.921	11.24
307.712	11.3
308.503	11.17
309.294	8.38
310.085	8.15
310.875	7.89
311.666	11.08
312.457	8.95
313.247	11.55
314.037	8.94
314.828	9.69
315.618	9.09
316.408	8.7
317.198	10.95
317.988	9.21
318.778	6.53
319.568	9.81
320.358	10.11
321.147	10.29
321.937	7.78
322.727	8.08
323.516	8.49
324.306	7.68
325.095	10.57
325.884	8.32
326.674	6.98
327.463	11.16
328.252	9.51
329.041	7.27
329.83	7.48
330.619	8.72
331.408	8
332.196	7.76
332.985	8.21
333.774	7.44
334.562	11.45
335.351	10.11
336.139	11.05
336.927	12.96
337.716	11.05
338.504	10.33
339.292	13.49
340.08	14.1
340.868	12.44
341.656	13.37
342.443	12.31
343.231	13.24
344.019	13.94
344.806	14.5
345.594	14.28
346.381	14.62
347.169	13.76
347.956	14.74
348.743	13.09
349.531	12.45
350.318	12.41
351.105	13.66
351.892	12.69
352.679	12.01
353.465	11.19
354.252	10.61
355.039	10.24
355.825	10.41
356.612	10.16
357.398	9.76
358.185	9.5
358.971	8.91
359.757	8.55
360.543	8.44
361.33	8.14
362.116	7.97
362.902	7.81
363.687	7.61
364.473	7.18
365.259	7.37
366.045	7.18
366.83	7.06
367.616	6.84
368.401	6.7
369.187	6.64
369.972	6.57
370.757	6.7
371.542	6.54
372.327	6.61
373.112	6.51
373.897	6.51
374.682	6.55
375.467	6.53
376.252	6.52
377.036	6.53
377.821	6.47
378.606	6.66
379.39	6.55
380.174	6.68
380.959	6.83
381.743	6.77
382.527	6.76
383.311	6.8
384.095	6.88
384.879	6.96
385.663	7.04
386.447	7.08
387.23	7.12
388.014	7.23
388.798	7.31
389.581	7.28
390.365	7.31
391.148	7.45
391.931	7.4
392.714	7.58
393.498	7.63
394.281	7.56
395.064	7.68
395.847	7.75
396.629	7.78
397.412	7.87
398.195	7.91
398.978	7.94
399.76	8
400.543	8.06
401.325	8.07
402.107	8.07
402.89	8.12
403.672	8.13
404.454	8.15
405.236	8.22
406.018	8.21
406.8	8.22
407.582	8.2
408.364	8.24
409.145	8.21
409.927	8.26
410.708	8.25
411.49	8.25
412.271	8.24
413.053	8.27
413.834	8.25
414.615	8.26
415.396	8.28
416.177	8.32
416.958	8.25
417.739	8.27
418.52	8.31
419.301	8.35
420.081	8.25
420.862	8.3
421.642	8.32
422.423	8.34
423.203	8.31
423.983	8.29
424.764	8.29
425.544	8.29
426.324	8.29
427.104	8.24
427.884	8.24
428.664	8.29
429.443	8.27
430.223	8.27
431.003	8.24
431.782	8.25
432.562	8.23
433.341	8.33
434.121	8.34
434.9	8.38
435.679	8.38
436.458	8.44
437.237	8.48
438.016	8.53
438.795	8.64
439.574	8.67
440.353	8.76
441.131	8.8
441.91	8.86
442.689	8.91
443.467	8.94
444.245	9
445.024	9.05
445.802	9.16
446.58	9.2
447.358	9.21
448.136	9.25
448.914	9.28
449.692	9.3
450.47	9.34
451.248	9.34
452.025	9.34
452.803	9.41
453.58	9.34
454.358	9.34
455.135	9.35
455.912	9.39
456.69	9.41
457.467	9.4
458.244	9.38
459.021	9.36
459.798	9.36
460.575	9.38
461.351	9.37
462.128	9.4
462.905	9.4
463.681	9.4
464.458	9.38
465.234	9.41
466.01	9.4
466.787	9.41
467.563	9.44
468.339	9.4
469.115	9.39
469.891	9.39
470.667	9.36
471.443	9.39
472.218	9.39
472.994	9.37
473.77	9.35
474.545	9.3
475.32	9.29
476.096	9.26
476.871	9.19
477.646	9.12
478.421	9.11
479.197	9.13
479.971	9.15
480.746	9.08
481.521	9.08
482.296	9.09
483.071	9.07
483.845	9.1
484.62	9.1
485.394	9.07
486.169	9.1
486.943	9.08
487.717	9.08
488.491	9.1
489.265	9.1
490.039	9.12
490.813	9.13
491.587	9.14
492.361	9.2
493.135	9.21
493.908	9.19
494.682	9.26
495.455	9.26
496.229	9.34
497.002	9.37
497.775	9.42
498.549	9.42
499.322	9.44
500.095	9.44
500.868	9.47
501.641	9.51
502.413	9.51
503.186	9.57
503.959	9.55
504.731	9.59
505.504	9.58
506.276	9.59
507.049	9.57
507.821	9.55
508.593	9.52
509.365	9.48
510.137	9.49
510.909	9.51
511.681	9.53
512.453	9.5
513.225	9.47
513.997	9.5
514.768	9.48
515.54	9.43
516.311	9.41
517.083	9.42
517.854	9.45
518.625	9.44
519.396	9.42
520.167	9.38
520.938	9.37
521.709	9.36
522.48	9.33
523.251	9.33
524.022	9.32
524.792	9.31
525.563	9.27
526.333	9.23
527.104	9.18
527.874	9.16
528.644	9.09
529.415	9.02
530.185	8.98
530.955	8.95
531.725	8.9
532.494	8.9
533.264	8.88
534.034	8.87
534.804	8.86
535.573	8.83
536.343	8.81
537.112	8.84
537.881	8.85
538.651	8.84
539.42	8.8
540.189	8.77
540.958	8.74
541.727	8.76
542.496	8.78
543.265	8.76
544.033	8.74
544.802	8.77
545.571	8.78
546.339	8.8
547.108	8.79
547.876	8.83
548.644	8.83
549.412	8.82
550.181	8.81
550.949	8.81
551.717	8.78
552.485	8.8
553.252	8.85
554.02	8.88
554.788	8.91
555.555	8.94
556.323	8.96
557.09	8.98
557.858	9.04
558.625	9.05
559.392	9.07
560.159	9.11
560.926	9.11
561.693	9.11
562.46	9.12
563.227	9.09
563.994	9.1
564.76	9.06
565.527	9.08
566.294	9.09
567.06	9.09
567.826	9.11
568.593	9.12
569.359	9.18
570.125	9.19
570.891	9.18
571.657	9.14
572.423	9.12
573.189	9.05
573.955	9.03
574.72	9.03
575.486	9
576.251	8.97
577.017	8.99
577.782	8.97
578.548	8.94
579.313	8.87
580.078	8.86
580.843	8.81
581.608	8.77
582.373	8.75
583.138	8.74
583.902	8.65
584.667	8.61
585.432	8.58
586.196	8.54
586.961	8.51
587.725	8.42
588.489	8.37
589.254	8.33
590.018	8.28
590.782	8.29
591.546	8.3
592.31	8.29
593.073	8.28
593.837	8.29
594.601	8.27
595.365	8.31
596.128	8.32
596.891	8.29
597.655	8.23
598.418	8.21
599.181	8.24
599.944	8.23
600.708	8.22
601.471	8.2
602.233	8.2
602.996	8.2
603.759	8.19
604.522	8.2
605.284	8.22
606.047	8.25
606.809	8.22
607.572	8.26
608.334	8.31
609.096	8.32
609.858	8.29
610.62	8.31
611.382	8.34
612.144	8.38
612.906	8.39
613.668	8.48
614.429	8.47
615.191	8.46
615.952	8.42
616.714	8.48
617.475	8.51
618.236	8.48
618.998	8.5
619.759	8.45
620.52	8.47
621.281	8.46
622.042	8.46
622.803	8.44
623.563	8.43
624.324	8.42
625.084	8.42
625.845	8.37
626.605	8.34
627.366	8.26
628.126	8.22
628.886	8.15
629.646	8.1
630.406	8.05
631.166	8.02
631.926	8.02
632.686	8.01
633.446	7.97
634.205	7.94
634.965	7.95
635.724	8.01
636.484	8
637.243	7.99
638.002	8
638.761	7.98
639.52	7.97
640.28	7.95
641.038	7.89
641.797	7.82
642.556	7.82
643.315	7.82
644.073	7.77
644.832	7.78
645.59	7.78
646.349	7.8
647.107	7.81
647.865	7.88
648.623	7.89
649.382	7.9
650.139	7.91
650.897	7.92
651.655	7.94
652.413	7.93
653.171	7.95
653.928	7.96
654.686	7.97
655.443	8.01
656.201	8.04
656.958	8.01
657.715	8.05
658.472	8.06
659.229	8.11
659.986	8.12
660.743	8.07
661.5	8.06
662.257	8.08
663.013	8.04
663.77	8.08
664.526	8.06
665.283	8.07
666.039	8.08
666.795	8.11
667.552	8.16
668.308	8.18
669.064	8.21
669.82	8.23
670.575	8.18
671.331	8.18
672.087	8.14
672.843	8.12
673.598	8.09
674.354	8.04
675.109	8
675.864	7.99
676.62	7.97
677.375	7.91
678.13	7.83
678.885	7.82
679.64	7.82
680.394	7.79
681.149	7.77
681.904	7.76
682.658	7.74
683.413	7.73
684.167	7.7
684.922	7.73
685.676	7.74
686.43	7.79
687.184	7.79
687.938	7.77
688.692	7.75
689.446	7.74
690.2	7.75
690.954	7.71
691.707	7.66
692.461	7.65
693.214	7.66
693.968	7.64
694.721	7.64
695.474	7.63
696.228	7.6
696.981	7.59
697.734	7.61
698.487	7.62
699.239	7.68
699.992	7.71
700.745	7.71
701.498	7.75
702.25	7.76
703.002	7.75
703.755	7.76
704.507	7.75
705.259	7.81
706.011	7.85
706.764	7.93
707.515	7.9
708.267	7.9
709.019	7.89
709.771	7.94
710.523	7.97
711.274	7.97
712.026	8.02
712.777	8.05
713.528	8.06
714.28	8.14
715.031	8.18
715.782	8.2
716.533	8.22
717.284	8.25
718.035	8.23
718.785	8.26
719.536	8.21
720.287	8.27
721.037	8.29
721.788	8.31
722.538	8.28
723.288	8.25
724.038	8.22
724.789	8.22
725.539	8.24
726.289	8.23
727.039	8.23
727.788	8.26
728.538	8.26
729.288	8.26
730.037	8.22
730.787	8.24
731.536	8.28
732.285	8.31
733.035	8.31
733.784	8.29
734.533	8.19
735.282	8.17
736.031	8.1
736.78	8.15
737.528	8.15
738.277	8.23
739.026	8.29
739.774	8.28
740.523	8.29
741.271	8.33
742.019	8.38
742.767	8.3
743.516	8.31
744.264	8.37
745.011	8.42
745.759	8.48
746.507	8.47
747.255	8.47
748.002	8.55
748.75	8.54
749.497	8.52
750.245	8.56
750.992	8.6
751.739	8.6
752.486	8.66
753.234	8.6
753.981	8.56
754.727	8.56
755.474	8.53
756.221	8.52
756.968	8.5
757.714	8.53
758.461	8.53
759.207	8.51
759.953	8.39
760.7	8.39
761.446	8.45
762.192	8.52
762.938	8.54
763.684	8.65
764.43	8.62
765.175	8.59
765.921	8.54
766.667	8.52
767.412	8.49
768.158	8.53
768.903	8.46
769.648	8.55
770.393	8.52
771.139	8.54
771.884	8.54
772.628	8.51
773.373	8.54
774.118	8.45
774.863	8.5
775.607	8.5
776.352	8.46
777.096	8.49
777.841	8.45
778.585	8.43
779.329	8.48
780.073	8.46
780.817	8.41
781.561	8.37
782.305	8.39
783.049	8.4
783.793	8.49
784.536	8.45
785.28	8.47
786.023	8.5
786.767	8.59
787.51	8.66
788.253	8.67
788.997	8.71
789.74	8.72
790.483	8.87
791.225	8.95
791.968	9
792.711	9.04
793.454	9
794.196	9.09
794.939	9.05
795.681	9.09
796.423	9.28
797.166	9.27
797.908	9.32
798.65	9.3
799.392	9.37
800.134	9.4
800.876	9.48
801.617	9.5
802.359	9.52
803.101	9.45
803.842	9.49
804.584	9.43
805.325	9.47
806.066	9.52
806.807	9.59
807.548	9.6
808.289	9.7
809.03	9.77
809.771	9.84
810.512	9.86
811.253	9.96
811.993	9.98
812.734	10.01
813.474	10.12
814.215	10.21
814.955	10.19
815.695	10.22
816.435	10.28
817.175	10.25
817.915	10.23
818.655	10.21
819.395	10.42
820.134	10.51
820.874	10.62
821.613	10.74
822.353	10.83
823.092	10.8
823.832	10.79
824.571	10.77
825.31	10.73
826.049	10.83
826.788	11.1
827.527	11.24
828.265	11.12
829.004	11.04
829.743	10.97
830.481	11.02
831.22	11.1
831.958	11.17
832.696	11.3
833.435	11.49
834.173	11.58
834.911	11.72
835.649	11.76
836.387	11.69
837.124	11.73
837.862	11.74
838.6	11.69
839.337	11.81
840.075	12.03
840.812	12.29
841.549	12.28
842.286	12.39
843.024	12.4
843.761	12.28
844.498	12.45
845.234	12.53
845.971	12.52
846.708	12.83
847.444	12.83
848.181	12.9
848.917	12.99
849.654	13.02
850.39	13.21
851.126	13.24
851.862	13.23
852.598	13.53
853.334	13.67
854.07	13.72
854.806	13.86
855.542	14.18
856.277	14.36
857.013	14.54
857.748	14.64
858.484	14.71
859.219	14.81
859.954	14.81
860.689	14.71
861.424	14.74
862.159	14.9
862.894	14.98
863.629	14.92
864.364	14.93
865.098	14.95
865.833	15.24
866.567	15.21
867.301	15.38
868.036	15.42
868.77	15.33
869.504	15.45
870.238	15.56
870.972	15.52
871.706	15.69
872.44	15.8
873.173	15.91
873.907	16
874.64	16.1
875.374	16.03
876.107	15.99
876.84	15.87
877.574	15.87
878.307	16.19
879.04	16.36
879.773	16.51
880.506	16.68
881.238	16.98
881.971	17.13
882.704	17.19
883.436	17.38
884.168	17.43
884.901	17.49
885.633	17.62
886.365	17.92
887.097	18.07
887.829	18.33
888.561	18.79
889.293	18.97
890.025	19.16
890.756	19.39
891.488	19.75
892.22	20.11
892.951	20.56
893.682	21.18
894.414	21.48
895.145	21.64
895.876	21.6
896.607	21.89
897.338	22.1
898.068	22.46
898.799	22.55
899.53	22.68
900.26	22.79
900.991	23.36
901.721	23.7
902.452	24.05
903.182	24.48
903.912	25.12
904.642	25.13
905.372	25.36
906.102	25.36
906.832	25.32
907.561	25.54
908.291	25.62
909.021	25.72
909.75	26.05
910.479	26.2
911.209	26.32
911.938	26.68
912.667	27.14
913.396	27.65
914.125	28.17
914.854	28.79
915.583	29.26
916.311	29.49
917.04	29.65
917.769	29.9
918.497	29.83
919.225	29.91
919.954	29.86
920.682	30.09
921.41	30.36
922.138	30.42
922.866	30.2
923.594	30.4
924.321	30.08
925.049	30.61
925.777	30.43
926.504	30.7
927.232	30.96
927.959	31.11
928.686	31.1
929.413	31.02
930.14	30.83
930.867	30.99
931.594	30.97
932.321	31.3
933.048	31.4
933.775	31.7
934.501	32.1
935.228	31.92
935.954	32.33
936.68	32.37
937.406	32.59
938.133	32.52
938.859	32.41
939.585	32.04
940.311	32.72
941.036	32.39
941.762	32.52
942.488	33.55
943.213	33.64
943.939	33.9
944.664	34.77
945.389	33.74
946.114	35.16
946.84	34.85
947.565	36.09
948.29	36.47
949.014	36.3
949.739	36.6
950.464	36.81
951.188	37.39
951.913	35.2
952.637	35.2
953.362	34.27
954.086	34.36
954.81	33.05
955.534	32.89
956.258	32.79
956.982	29.65
957.706	31.29
958.43	30.52
959.153	29.91
959.877	29.8
960.6	28.92
961.324	27.82
962.047	29.85
962.77	29.47
963.493	28.87
964.216	27.91
964.939	26.93
965.662	28.45
966.385	29.35
967.108	29.23
967.83	31.05
968.553	26.66
969.275	26.69
969.998	29.29
970.72	28.31
971.442	27.59
972.164	26.99
972.886	27.69
973.608	28.74
974.33	28.84
975.052	31.94
975.773	34.21
976.495	35.94
977.216	35.43
977.938	35.08
978.659	34.56
979.38	31.15
980.101	27.95
980.822	27.93
981.543	26.93
982.264	26.86
982.985	22.78
983.706	23.79
984.426	23.59
985.147	23.12
985.867	25.08
986.588	27
987.308	27.72
988.028	32.46
988.748	31.45
989.468	34.79
990.188	-68.33
990.908	-52.27
991.628	157.61
992.347	182.69
