Data from NS20250604PP_Bbi1_50x_CarbonTape_Reflection_5.txt Node
Date: Tue Sep 30 15:46:17 CEST 2025
User: SchwarzN
Spectrometer: QEP00228
Trigger mode: 4
Integration Time (sec): 4.200000E-2
Scans to average: 10
Electric dark correction enabled: true
Nonlinearity correction enabled: false
Boxcar width: 0
XAxis mode: Wavelengths
Number of Pixels in Spectrum: 1044
>>>>>Begin Spectral Data<<<<<
197.905	-2675
198.705	2525
199.505	855
200.306	102.78
201.106	4.78
201.906	10.32
202.706	10.82
203.506	6.09
204.306	2.78
205.106	7.4
205.906	5.81
206.706	8.19
207.505	10.66
208.305	8.69
209.104	10.22
209.904	11.36
210.703	8.89
211.503	12.94
212.302	8.73
213.101	8.88
213.9	8.05
214.699	4.57
215.498	9.41
216.297	10.59
217.096	11.01
217.895	10.28
218.694	5.1
219.492	11.29
220.291	7.5
221.089	5.39
221.888	8.08
222.686	6.53
223.484	4.22
224.283	-0.45
225.081	7.91
225.879	8.43
226.677	6.63
227.475	8.78
228.273	6.28
229.071	6.16
229.868	12.42
230.666	12.32
231.464	7.83
232.261	9.08
233.059	12.48
233.856	7.74
234.654	10.98
235.451	8.08
236.248	9.4
237.045	9.06
237.842	7.62
238.639	6.84
239.436	7.88
240.233	9.24
241.03	8.82
241.827	6.56
242.623	4.31
243.42	15
244.216	7.76
245.013	12.21
245.809	10.72
246.605	10.29
247.402	10.46
248.198	4.63
248.994	4.99
249.79	11
250.586	7.5
251.382	5.27
252.178	3.3
252.973	5.91
253.769	8.54
254.565	2.17
255.36	11.02
256.156	9.71
256.951	10.01
257.746	7.22
258.542	4.74
259.337	8.63
260.132	7.98
260.927	4.85
261.722	7.91
262.517	7.38
263.312	7.68
264.107	9.55
264.901	2.22
265.696	6.18
266.491	8.36
267.285	6.45
268.08	8.67
268.874	6.88
269.668	3.48
270.463	4.4
271.257	6.37
272.051	6.77
272.845	6.55
273.639	5.68
274.433	8.21
275.226	10.5
276.02	7.09
276.814	9.71
277.607	6.33
278.401	8.35
279.194	10.17
279.988	7.07
280.781	11.97
281.574	5.05
282.368	12.54
283.161	9.91
283.954	5.49
284.747	9.4
285.54	8.71
286.332	9.74
287.125	7.41
287.918	8.95
288.711	6.94
289.503	10.61
290.296	7.42
291.088	8.43
291.88	7.19
292.673	7.65
293.465	6.31
294.257	8.03
295.049	6.86
295.841	7
296.633	6.93
297.425	8.9
298.217	6.77
299.008	4.32
299.8	7.06
300.591	9.14
301.383	10.59
302.174	6.33
302.966	9.47
303.757	9.02
304.548	7.54
305.339	9.14
306.13	7.34
306.921	8.84
307.712	6.72
308.503	11.22
309.294	7.62
310.085	7.18
310.875	7.55
311.666	8.06
312.457	9
313.247	9.98
314.037	7.78
314.828	6.45
315.618	7.1
316.408	5.93
317.198	7.1
317.988	8.49
318.778	4.01
319.568	8.35
320.358	6.86
321.147	7.91
321.937	5.18
322.727	6.21
323.516	10.19
324.306	5.67
325.095	6.91
325.884	7.44
326.674	6.29
327.463	7.79
328.252	6.15
329.041	8.02
329.83	6.44
330.619	6.63
331.408	7.68
332.196	6.55
332.985	9.07
333.774	8.14
334.562	9.01
335.351	9.04
336.139	8.95
336.927	11.28
337.716	9.67
338.504	10.37
339.292	12.79
340.08	12.82
340.868	11.29
341.656	10.58
342.443	11.65
343.231	12.72
344.019	13.56
344.806	12.47
345.594	11.59
346.381	12.67
347.169	13.1
347.956	13.2
348.743	13.11
349.531	12
350.318	11.09
351.105	11.68
351.892	11.74
352.679	9.84
353.465	10.14
354.252	9.29
355.039	9.22
355.825	9.16
356.612	9.27
357.398	8.53
358.185	8.41
358.971	7.84
359.757	7.38
360.543	7.16
361.33	7.24
362.116	7.13
362.902	6.9
363.687	6.66
364.473	6.43
365.259	6.41
366.045	6.37
366.83	6.1
367.616	6.01
368.401	5.97
369.187	5.91
369.972	5.96
370.757	5.83
371.542	5.8
372.327	5.82
373.112	5.66
373.897	5.78
374.682	5.75
375.467	5.74
376.252	5.65
377.036	5.62
377.821	5.64
378.606	5.66
379.39	5.64
380.174	5.78
380.959	5.62
381.743	5.67
382.527	5.81
383.311	5.68
384.095	5.73
384.879	5.77
385.663	5.85
386.447	5.82
387.23	5.83
388.014	5.84
388.798	5.92
389.581	5.96
390.365	5.89
391.148	5.97
391.931	6
392.714	6.03
393.498	6.09
394.281	6.08
395.064	6.16
395.847	6.17
396.629	6.23
397.412	6.31
398.195	6.34
398.978	6.36
399.76	6.4
400.543	6.35
401.325	6.44
402.107	6.45
402.89	6.46
403.672	6.48
404.454	6.48
405.236	6.51
406.018	6.52
406.8	6.55
407.582	6.52
408.364	6.56
409.145	6.62
409.927	6.56
410.708	6.61
411.49	6.61
412.271	6.61
413.053	6.6
413.834	6.62
414.615	6.68
415.396	6.63
416.177	6.64
416.958	6.69
417.739	6.67
418.52	6.7
419.301	6.65
420.081	6.71
420.862	6.73
421.642	6.71
422.423	6.71
423.203	6.66
423.983	6.73
424.764	6.69
425.544	6.71
426.324	6.67
427.104	6.68
427.884	6.67
428.664	6.68
429.443	6.68
430.223	6.63
431.003	6.6
431.782	6.63
432.562	6.67
433.341	6.65
434.121	6.67
434.9	6.71
435.679	6.69
436.458	6.71
437.237	6.79
438.016	6.76
438.795	6.84
439.574	6.87
440.353	6.91
441.131	6.92
441.91	6.96
442.689	7.06
443.467	7.09
444.245	7.08
445.024	7.11
445.802	7.15
446.58	7.19
447.358	7.18
448.136	7.2
448.914	7.27
449.692	7.27
450.47	7.29
451.248	7.3
452.025	7.3
452.803	7.29
453.58	7.28
454.358	7.29
455.135	7.29
455.912	7.26
456.69	7.28
457.467	7.27
458.244	7.27
459.021	7.23
459.798	7.27
460.575	7.28
461.351	7.3
462.128	7.31
462.905	7.28
463.681	7.27
464.458	7.27
465.234	7.25
466.01	7.29
466.787	7.29
467.563	7.29
468.339	7.29
469.115	7.3
469.891	7.26
470.667	7.25
471.443	7.29
472.218	7.29
472.994	7.29
473.77	7.25
474.545	7.23
475.32	7.18
476.096	7.15
476.871	7.13
477.646	7.12
478.421	7.1
479.197	7.1
479.971	7.09
480.746	7.08
481.521	7.08
482.296	7.09
483.071	7.06
483.845	7.06
484.62	7.08
485.394	7.07
486.169	7.08
486.943	7.06
487.717	7.06
488.491	7.06
489.265	7.05
490.039	7.07
490.813	7.12
491.587	7.14
492.361	7.16
493.135	7.17
493.908	7.17
494.682	7.18
495.455	7.19
496.229	7.23
497.002	7.25
497.775	7.29
498.549	7.3
499.322	7.32
500.095	7.34
500.868	7.41
501.641	7.4
502.413	7.4
503.186	7.41
503.959	7.41
504.731	7.4
505.504	7.4
506.276	7.41
507.049	7.41
507.821	7.41
508.593	7.41
509.365	7.41
510.137	7.41
510.909	7.42
511.681	7.4
512.453	7.37
513.225	7.34
513.997	7.35
514.768	7.33
515.54	7.34
516.311	7.33
517.083	7.34
517.854	7.35
518.625	7.34
519.396	7.33
520.167	7.32
520.938	7.29
521.709	7.27
522.48	7.27
523.251	7.26
524.022	7.29
524.792	7.29
525.563	7.27
526.333	7.21
527.104	7.19
527.874	7.19
528.644	7.13
529.415	7.09
530.185	7.06
530.955	7.05
531.725	7.01
532.494	6.99
533.264	6.95
534.034	6.97
534.804	6.96
535.573	6.99
536.343	6.95
537.112	6.96
537.881	6.97
538.651	6.97
539.42	6.91
540.189	6.93
540.958	6.91
541.727	6.93
542.496	6.94
543.265	6.92
544.033	6.91
544.802	6.92
545.571	6.92
546.339	6.93
547.108	6.94
547.876	6.95
548.644	6.98
549.412	6.99
550.181	7.01
550.949	7.01
551.717	7.01
552.485	7.04
553.252	7.1
554.02	7.11
554.788	7.14
555.555	7.16
556.323	7.16
557.09	7.19
557.858	7.22
558.625	7.24
559.392	7.25
560.159	7.26
560.926	7.28
561.693	7.31
562.46	7.31
563.227	7.28
563.994	7.29
564.76	7.32
565.527	7.38
566.294	7.34
567.06	7.34
567.826	7.35
568.593	7.36
569.359	7.39
570.125	7.41
570.891	7.39
571.657	7.4
572.423	7.37
573.189	7.33
573.955	7.32
574.72	7.32
575.486	7.27
576.251	7.26
577.017	7.27
577.782	7.24
578.548	7.24
579.313	7.22
580.078	7.21
580.843	7.17
581.608	7.17
582.373	7.18
583.138	7.18
583.902	7.13
584.667	7.06
585.432	6.99
586.196	7
586.961	6.98
587.725	6.93
588.489	6.89
589.254	6.87
590.018	6.83
590.782	6.86
591.546	6.81
592.31	6.82
593.073	6.81
593.837	6.8
594.601	6.84
595.365	6.84
596.128	6.81
596.891	6.78
597.655	6.75
598.418	6.74
599.181	6.76
599.944	6.73
600.708	6.74
601.471	6.71
602.233	6.72
602.996	6.73
603.759	6.74
604.522	6.72
605.284	6.75
606.047	6.76
606.809	6.77
607.572	6.79
608.334	6.81
609.096	6.81
609.858	6.81
610.62	6.82
611.382	6.85
612.144	6.86
612.906	6.88
613.668	6.91
614.429	6.93
615.191	6.96
615.952	6.94
616.714	6.99
617.475	7.04
618.236	7.02
618.998	7.04
619.759	7
620.52	7.02
621.281	7.04
622.042	7.02
622.803	7.03
623.563	6.99
624.324	6.95
625.084	6.94
625.845	6.89
626.605	6.86
627.366	6.83
628.126	6.79
628.886	6.7
629.646	6.7
630.406	6.66
631.166	6.67
631.926	6.67
632.686	6.61
633.446	6.57
634.205	6.57
634.965	6.56
635.724	6.62
636.484	6.61
637.243	6.59
638.002	6.61
638.761	6.58
639.52	6.58
640.28	6.53
641.038	6.51
641.797	6.48
642.556	6.46
643.315	6.47
644.073	6.46
644.832	6.46
645.59	6.43
646.349	6.44
647.107	6.46
647.865	6.5
648.623	6.54
649.382	6.56
650.139	6.56
650.897	6.56
651.655	6.53
652.413	6.52
653.171	6.54
653.928	6.58
654.686	6.59
655.443	6.57
656.201	6.56
656.958	6.56
657.715	6.58
658.472	6.6
659.229	6.65
659.986	6.66
660.743	6.66
661.5	6.68
662.257	6.7
663.013	6.7
663.77	6.75
664.526	6.76
665.283	6.74
666.039	6.73
666.795	6.77
667.552	6.76
668.308	6.75
669.064	6.73
669.82	6.7
670.575	6.68
671.331	6.66
672.087	6.63
672.843	6.64
673.598	6.62
674.354	6.54
675.109	6.55
675.864	6.58
676.62	6.54
677.375	6.52
678.13	6.44
678.885	6.42
679.64	6.49
680.394	6.44
681.149	6.45
681.904	6.43
682.658	6.43
683.413	6.4
684.167	6.37
684.922	6.38
685.676	6.38
686.43	6.39
687.184	6.4
687.938	6.38
688.692	6.39
689.446	6.36
690.2	6.37
690.954	6.36
691.707	6.33
692.461	6.34
693.214	6.34
693.968	6.31
694.721	6.3
695.474	6.28
696.228	6.29
696.981	6.29
697.734	6.29
698.487	6.29
699.239	6.38
699.992	6.4
700.745	6.39
701.498	6.4
702.25	6.39
703.002	6.37
703.755	6.38
704.507	6.35
705.259	6.38
706.011	6.38
706.764	6.42
707.515	6.43
708.267	6.35
709.019	6.36
709.771	6.36
710.523	6.38
711.274	6.38
712.026	6.41
712.777	6.47
713.528	6.51
714.28	6.52
715.031	6.58
715.782	6.57
716.533	6.64
717.284	6.6
718.035	6.61
718.785	6.57
719.536	6.58
720.287	6.63
721.037	6.64
721.788	6.65
722.538	6.64
723.288	6.63
724.038	6.59
724.789	6.6
725.539	6.57
726.289	6.57
727.039	6.54
727.788	6.55
728.538	6.61
729.288	6.6
730.037	6.6
730.787	6.6
731.536	6.64
732.285	6.66
733.035	6.61
733.784	6.65
734.533	6.59
735.282	6.58
736.031	6.54
736.78	6.57
737.528	6.59
738.277	6.63
739.026	6.68
739.774	6.69
740.523	6.71
741.271	6.76
742.019	6.78
742.767	6.76
743.516	6.74
744.264	6.82
745.011	6.87
745.759	6.87
746.507	6.92
747.255	6.9
748.002	6.92
748.75	6.96
749.497	6.93
750.245	6.94
750.992	6.87
751.739	6.91
752.486	6.95
753.234	6.95
753.981	6.9
754.727	6.87
755.474	6.86
756.221	6.88
756.968	6.88
757.714	6.89
758.461	6.92
759.207	6.88
759.953	6.88
760.7	6.83
761.446	6.87
762.192	6.94
762.938	6.95
763.684	7.03
764.43	7
765.175	6.95
765.921	6.9
766.667	6.93
767.412	6.9
768.158	6.84
768.903	6.85
769.648	6.82
770.393	6.84
771.139	6.82
771.884	6.8
772.628	6.77
773.373	6.79
774.118	6.76
774.863	6.77
775.607	6.8
776.352	6.78
777.096	6.84
777.841	6.81
778.585	6.86
779.329	6.86
780.073	6.85
780.817	6.87
781.561	6.86
782.305	6.92
783.049	6.95
783.793	7
784.536	6.99
785.28	7.03
786.023	7.1
786.767	7.15
787.51	7.14
788.253	7.26
788.997	7.24
789.74	7.26
790.483	7.31
791.225	7.38
791.968	7.4
792.711	7.46
793.454	7.44
794.196	7.44
794.939	7.47
795.681	7.48
796.423	7.61
797.166	7.6
797.908	7.63
798.65	7.66
799.392	7.68
800.134	7.82
800.876	7.82
801.617	7.84
802.359	7.87
803.101	7.86
803.842	7.95
804.584	8.01
805.325	8.06
806.066	8.08
806.807	8.14
807.548	8.18
808.289	8.13
809.03	8.2
809.771	8.31
810.512	8.33
811.253	8.35
811.993	8.3
812.734	8.36
813.474	8.47
814.215	8.57
814.955	8.57
815.695	8.57
816.435	8.49
817.175	8.48
817.915	8.47
818.655	8.43
819.395	8.64
820.134	8.74
820.874	8.86
821.613	8.97
822.353	9.12
823.092	9.08
823.832	9.13
824.571	9.19
825.31	9.18
826.049	9.2
826.788	9.38
827.527	9.53
828.265	9.5
829.004	9.39
829.743	9.26
830.481	9.3
831.22	9.4
831.958	9.52
832.696	9.61
833.435	9.76
834.173	9.91
834.911	9.95
835.649	9.93
836.387	9.84
837.124	9.88
837.862	9.95
838.6	9.96
839.337	10.12
840.075	10.25
840.812	10.48
841.549	10.42
842.286	10.47
843.024	10.57
843.761	10.56
844.498	10.56
845.234	10.69
845.971	10.79
846.708	10.77
847.444	10.89
848.181	10.99
848.917	11.06
849.654	11.14
850.39	11.21
851.126	11.37
851.862	11.45
852.598	11.53
853.334	11.74
854.07	11.72
854.806	11.87
855.542	11.99
856.277	12.29
857.013	12.4
857.748	12.57
858.484	12.67
859.219	12.59
859.954	12.74
860.689	12.65
861.424	12.66
862.159	12.81
862.894	12.94
863.629	12.86
864.364	12.98
865.098	13.03
865.833	13.13
866.567	13.03
867.301	13.27
868.036	13.15
868.77	13.2
869.504	13.36
870.238	13.4
870.972	13.41
871.706	13.46
872.44	13.71
873.173	13.75
873.907	13.82
874.64	13.83
875.374	13.88
876.107	13.89
876.84	13.77
877.574	13.84
878.307	14.1
879.04	14.35
879.773	14.47
880.506	14.75
881.238	15
881.971	15.21
882.704	15.28
883.436	15.37
884.168	15.4
884.901	15.5
885.633	15.49
886.365	15.65
887.097	15.72
887.829	16.05
888.561	16.28
889.293	16.34
890.025	16.57
890.756	16.8
891.488	17.12
892.22	17.49
892.951	17.95
893.682	18.55
894.414	19.03
895.145	19.26
895.876	19.23
896.607	19.34
897.338	19.47
898.068	19.85
898.799	20
899.53	20.1
900.26	20.28
900.991	20.82
901.721	21.14
902.452	21.38
903.182	21.76
903.912	22.2
904.642	22.45
905.372	22.36
906.102	22.32
906.832	22.56
907.561	22.67
908.291	22.77
909.021	22.62
909.75	22.89
910.479	23.11
911.209	23.14
911.938	23.48
912.667	24
913.396	24.29
914.125	24.85
914.854	25.43
915.583	25.9
916.311	26.06
917.04	26.04
917.769	26.42
918.497	26.25
919.225	26.64
919.954	26.42
920.682	26.97
921.41	26.75
922.138	27.11
922.866	26.7
923.594	27.04
924.321	26.96
925.049	27.03
925.777	27.21
926.504	27.44
927.232	27.62
927.959	27.99
928.686	27.84
929.413	27.77
930.14	27.4
930.867	27.82
931.594	27.79
932.321	28.1
933.048	27.83
933.775	27.86
934.501	28.86
935.228	28.64
935.954	28.99
936.68	28.64
937.406	28.92
938.133	28.61
938.859	28.71
939.585	28.81
940.311	29.05
941.036	29.22
941.762	29.37
942.488	29.82
943.213	30.42
943.939	30.56
944.664	31.01
945.389	30.79
946.114	31.38
946.84	30.61
947.565	31.84
948.29	32.75
949.014	32.3
949.739	32.59
950.464	32.3
951.188	32.69
951.913	32.03
952.637	31.66
953.362	31.04
954.086	30.53
954.81	29.99
955.534	29.44
956.258	28.76
956.982	29.32
957.706	27.49
958.43	26.82
959.153	26.66
959.877	25.8
960.6	24.53
961.324	23.67
962.047	25
962.77	26.24
963.493	25.84
964.216	25.46
964.939	23.36
965.662	26.23
966.385	26.49
967.108	26.84
967.83	27.11
968.553	24.59
969.275	23.51
969.998	26.11
970.72	24.49
971.442	25.93
972.164	24.61
972.886	25.25
973.608	26.6
974.33	25.39
975.052	29.04
975.773	29.06
976.495	32.66
977.216	30.9
977.938	32.11
978.659	30.47
979.38	26.88
980.101	27.42
980.822	27.51
981.543	23.27
982.264	24.25
982.985	23.36
983.706	20.53
984.426	23.82
985.147	23.67
985.867	24.3
986.588	28.35
987.308	23.55
988.028	28.45
988.748	30.38
989.468	29.94
990.188	-5
990.908	-102.27
991.628	55.43
992.347	286.54
