Data from NS20250604PP_Bbi3_50x_CarbonTape_Reflection_9.txt Node
Date: Tue Sep 30 15:59:46 CEST 2025
User: SchwarzN
Spectrometer: QEP00228
Trigger mode: 4
Integration Time (sec): 4.200000E-2
Scans to average: 10
Electric dark correction enabled: true
Nonlinearity correction enabled: false
Boxcar width: 0
XAxis mode: Wavelengths
Number of Pixels in Spectrum: 1044
>>>>>Begin Spectral Data<<<<<
197.905	-1600
198.705	1200
199.505	320
200.306	244.44
201.106	7.01
201.906	9.08
202.706	6.37
203.506	4.48
204.306	2.96
205.106	6.45
205.906	4.2
206.706	8.95
207.505	5.42
208.305	5.72
209.104	8.27
209.904	10.13
210.703	6.73
211.503	11.72
212.302	5.29
213.101	8.49
213.9	14.83
214.699	6.14
215.498	12.13
216.297	6.7
217.096	8.03
217.895	5.98
218.694	4.99
219.492	8.95
220.291	10.04
221.089	8.9
221.888	10.45
222.686	6.69
223.484	2.06
224.283	4.17
225.081	7.81
225.879	6.66
226.677	5.67
227.475	8.11
228.273	4.21
229.071	6.85
229.868	6.93
230.666	9.83
231.464	8.01
232.261	3.47
233.059	2.42
233.856	4.91
234.654	5.86
235.451	6.33
236.248	7.11
237.045	8.7
237.842	7.52
238.639	5.71
239.436	4.93
240.233	5.42
241.03	2.91
241.827	4.21
242.623	4.48
243.42	7.84
244.216	4.34
245.013	8.61
245.809	6.91
246.605	6.88
247.402	4.78
248.198	6.92
248.994	6.44
249.79	9.67
250.586	4.23
251.382	9.06
252.178	2.4
252.973	8.72
253.769	10.19
254.565	-2.33
255.36	11.18
256.156	11.48
256.951	7.62
257.746	3.7
258.542	8.77
259.337	8.28
260.132	6.83
260.927	2.64
261.722	3.78
262.517	6.24
263.312	8.08
264.107	8.94
264.901	2.91
265.696	4.82
266.491	7.46
267.285	9.91
268.08	5.8
268.874	6.78
269.668	10.64
270.463	3.55
271.257	5.36
272.051	6.18
272.845	7.95
273.639	6.56
274.433	9.08
275.226	9.94
276.02	4.58
276.814	6.87
277.607	8.4
278.401	7.29
279.194	8.16
279.988	9.78
280.781	10.74
281.574	2.13
282.368	12.23
283.161	7.72
283.954	7.29
284.747	9.08
285.54	7.49
286.332	8.31
287.125	4.72
287.918	6.71
288.711	4.25
289.503	5.15
290.296	11.79
291.088	7.18
291.88	4.81
292.673	2.45
293.465	5.78
294.257	5.9
295.049	6.12
295.841	7.13
296.633	5.3
297.425	5.65
298.217	7.34
299.008	5.94
299.8	8.1
300.591	9.94
301.383	8.62
302.174	3.34
302.966	5.76
303.757	5.45
304.548	6.01
305.339	8.44
306.13	5.28
306.921	9.17
307.712	6.85
308.503	7.7
309.294	5.3
310.085	7.31
310.875	6.9
311.666	6.76
312.457	9.12
313.247	7.48
314.037	6.28
314.828	8.7
315.618	7.77
316.408	7.87
317.198	6.83
317.988	7.66
318.778	4.73
319.568	5.46
320.358	6.4
321.147	8.4
321.937	5.87
322.727	5.18
323.516	9.2
324.306	7.28
325.095	8.51
325.884	4.98
326.674	5.12
327.463	7.01
328.252	5.73
329.041	7.25
329.83	6.19
330.619	8.16
331.408	8.16
332.196	7.92
332.985	9.5
333.774	8.08
334.562	8.62
335.351	12.29
336.139	7.97
336.927	13.41
337.716	10.09
338.504	10.32
339.292	10.81
340.08	13.79
340.868	10.18
341.656	12
342.443	10.47
343.231	13.56
344.019	12.81
344.806	14.77
345.594	11.92
346.381	14.03
347.169	13
347.956	12.54
348.743	12.05
349.531	12.9
350.318	11.84
351.105	11.99
351.892	11.72
352.679	10.97
353.465	10.4
354.252	9.91
355.039	9.9
355.825	10.01
356.612	9.51
357.398	9.31
358.185	9.17
358.971	8.27
359.757	7.88
360.543	8.49
361.33	8.16
362.116	8.15
362.902	7.92
363.687	7.63
364.473	7.14
365.259	7.52
366.045	7.52
366.83	7.39
367.616	7.26
368.401	7.42
369.187	7.46
369.972	7.17
370.757	7.19
371.542	7.13
372.327	7.21
373.112	7.23
373.897	7.19
374.682	7.19
375.467	7.09
376.252	7.18
377.036	7.03
377.821	7.07
378.606	7.13
379.39	7.03
380.174	7.15
380.959	7.15
381.743	7.22
382.527	7.28
383.311	7.16
384.095	7.19
384.879	7.25
385.663	7.3
386.447	7.3
387.23	7.35
388.014	7.34
388.798	7.35
389.581	7.45
390.365	7.4
391.148	7.46
391.931	7.46
392.714	7.55
393.498	7.55
394.281	7.64
395.064	7.68
395.847	7.65
396.629	7.76
397.412	7.77
398.195	7.79
398.978	7.84
399.76	7.83
400.543	7.88
401.325	7.94
402.107	7.88
402.89	7.91
403.672	7.93
404.454	7.94
405.236	7.99
406.018	8.03
406.8	8.02
407.582	8.03
408.364	8.1
409.145	8.09
409.927	8.11
410.708	8.1
411.49	8.08
412.271	8.08
413.053	8.15
413.834	8.22
414.615	8.23
415.396	8.21
416.177	8.26
416.958	8.29
417.739	8.3
418.52	8.34
419.301	8.37
420.081	8.32
420.862	8.4
421.642	8.42
422.423	8.44
423.203	8.44
423.983	8.44
424.764	8.43
425.544	8.42
426.324	8.45
427.104	8.42
427.884	8.43
428.664	8.42
429.443	8.43
430.223	8.46
431.003	8.45
431.782	8.5
432.562	8.52
433.341	8.56
434.121	8.58
434.9	8.66
435.679	8.71
436.458	8.76
437.237	8.85
438.016	8.87
438.795	9
439.574	9.03
440.353	9.14
441.131	9.21
441.91	9.3
442.689	9.44
443.467	9.54
444.245	9.61
445.024	9.71
445.802	9.77
446.58	9.89
447.358	9.94
448.136	9.96
448.914	9.98
449.692	10.06
450.47	10.08
451.248	10.11
452.025	10.09
452.803	10.15
453.58	10.14
454.358	10.14
455.135	10.16
455.912	10.17
456.69	10.23
457.467	10.23
458.244	10.25
459.021	10.28
459.798	10.28
460.575	10.3
461.351	10.31
462.128	10.42
462.905	10.37
463.681	10.39
464.458	10.44
465.234	10.46
466.01	10.46
466.787	10.48
467.563	10.46
468.339	10.47
469.115	10.53
469.891	10.53
470.667	10.53
471.443	10.54
472.218	10.58
472.994	10.5
473.77	10.48
474.545	10.44
475.32	10.39
476.096	10.34
476.871	10.27
477.646	10.22
478.421	10.16
479.197	10.13
479.971	10.06
480.746	10
481.521	9.93
482.296	9.88
483.071	9.78
483.845	9.71
484.62	9.61
485.394	9.51
486.169	9.39
486.943	9.27
487.717	9.18
488.491	9.07
489.265	8.99
490.039	8.89
490.813	8.78
491.587	8.7
492.361	8.62
493.135	8.46
493.908	8.34
494.682	8.2
495.455	8.11
496.229	7.99
497.002	7.92
497.775	7.8
498.549	7.68
499.322	7.58
500.095	7.45
500.868	7.38
501.641	7.29
502.413	7.18
503.186	7.07
503.959	6.96
504.731	6.89
505.504	6.84
506.276	6.75
507.049	6.69
507.821	6.6
508.593	6.52
509.365	6.43
510.137	6.38
510.909	6.32
511.681	6.25
512.453	6.2
513.225	6.12
513.997	6.07
514.768	6.01
515.54	5.98
516.311	5.92
517.083	5.9
517.854	5.87
518.625	5.84
519.396	5.8
520.167	5.78
520.938	5.71
521.709	5.7
522.48	5.7
523.251	5.66
524.022	5.65
524.792	5.63
525.563	5.59
526.333	5.53
527.104	5.48
527.874	5.43
528.644	5.39
529.415	5.32
530.185	5.31
530.955	5.28
531.725	5.24
532.494	5.19
533.264	5.18
534.034	5.17
534.804	5.13
535.573	5.12
536.343	5.11
537.112	5.1
537.881	5.08
538.651	5.07
539.42	5.05
540.189	5.03
540.958	5.01
541.727	5.02
542.496	5.03
543.265	5.03
544.033	5.01
544.802	5.01
545.571	5.04
546.339	5.01
547.108	4.99
547.876	5
548.644	5.01
549.412	5
550.181	4.98
550.949	5
551.717	4.98
552.485	4.99
553.252	5.03
554.02	5.05
554.788	5.04
555.555	5.06
556.323	5.04
557.09	5.06
557.858	5.09
558.625	5.1
559.392	5.13
560.159	5.14
560.926	5.13
561.693	5.15
562.46	5.14
563.227	5.12
563.994	5.14
564.76	5.17
565.527	5.14
566.294	5.13
567.06	5.14
567.826	5.13
568.593	5.11
569.359	5.17
570.125	5.18
570.891	5.16
571.657	5.18
572.423	5.14
573.189	5.13
573.955	5.12
574.72	5.14
575.486	5.14
576.251	5.09
577.017	5.1
577.782	5.08
578.548	5.06
579.313	5.03
580.078	5
580.843	5.02
581.608	5
582.373	5.03
583.138	5
583.902	4.95
584.667	4.93
585.432	4.9
586.196	4.89
586.961	4.89
587.725	4.85
588.489	4.81
589.254	4.78
590.018	4.76
590.782	4.76
591.546	4.74
592.31	4.74
593.073	4.73
593.837	4.71
594.601	4.73
595.365	4.73
596.128	4.72
596.891	4.7
597.655	4.7
598.418	4.69
599.181	4.72
599.944	4.72
600.708	4.7
601.471	4.7
602.233	4.69
602.996	4.69
603.759	4.69
604.522	4.72
605.284	4.73
606.047	4.73
606.809	4.73
607.572	4.76
608.334	4.78
609.096	4.79
609.858	4.78
610.62	4.79
611.382	4.79
612.144	4.81
612.906	4.81
613.668	4.85
614.429	4.86
615.191	4.89
615.952	4.89
616.714	4.9
617.475	4.94
618.236	4.94
618.998	4.93
619.759	4.93
620.52	4.93
621.281	4.93
622.042	4.92
622.803	4.9
623.563	4.89
624.324	4.87
625.084	4.85
625.845	4.85
626.605	4.85
627.366	4.82
628.126	4.79
628.886	4.75
629.646	4.73
630.406	4.71
631.166	4.71
631.926	4.71
632.686	4.68
633.446	4.67
634.205	4.63
634.965	4.64
635.724	4.65
636.484	4.66
637.243	4.63
638.002	4.65
638.761	4.65
639.52	4.65
640.28	4.63
641.038	4.63
641.797	4.6
642.556	4.62
643.315	4.62
644.073	4.6
644.832	4.6
645.59	4.59
646.349	4.6
647.107	4.63
647.865	4.63
648.623	4.66
649.382	4.67
650.139	4.67
650.897	4.66
651.655	4.66
652.413	4.67
653.171	4.67
653.928	4.73
654.686	4.74
655.443	4.76
656.201	4.77
656.958	4.75
657.715	4.77
658.472	4.79
659.229	4.82
659.986	4.8
660.743	4.81
661.5	4.83
662.257	4.82
663.013	4.83
663.77	4.86
664.526	4.88
665.283	4.87
666.039	4.87
666.795	4.91
667.552	4.92
668.308	4.91
669.064	4.93
669.82	4.91
670.575	4.88
671.331	4.89
672.087	4.87
672.843	4.88
673.598	4.85
674.354	4.84
675.109	4.84
675.864	4.84
676.62	4.82
677.375	4.82
678.13	4.77
678.885	4.75
679.64	4.75
680.394	4.73
681.149	4.72
681.904	4.75
682.658	4.73
683.413	4.7
684.167	4.69
684.922	4.7
685.676	4.7
686.43	4.73
687.184	4.72
687.938	4.73
688.692	4.7
689.446	4.72
690.2	4.71
690.954	4.71
691.707	4.7
692.461	4.7
693.214	4.7
693.968	4.7
694.721	4.69
695.474	4.69
696.228	4.7
696.981	4.7
697.734	4.73
698.487	4.71
699.239	4.75
699.992	4.77
700.745	4.76
701.498	4.77
702.25	4.8
703.002	4.81
703.755	4.82
704.507	4.8
705.259	4.81
706.011	4.86
706.764	4.89
707.515	4.89
708.267	4.89
709.019	4.91
709.771	4.92
710.523	4.92
711.274	4.96
712.026	4.96
712.777	5.03
713.528	5.02
714.28	5.05
715.031	5.09
715.782	5.09
716.533	5.12
717.284	5.09
718.035	5.08
718.785	5.11
719.536	5.11
720.287	5.12
721.037	5.14
721.788	5.17
722.538	5.18
723.288	5.14
724.038	5.12
724.789	5.14
725.539	5.16
726.289	5.17
727.039	5.18
727.788	5.16
728.538	5.19
729.288	5.19
730.037	5.2
730.787	5.21
731.536	5.25
732.285	5.26
733.035	5.27
733.784	5.29
734.533	5.23
735.282	5.21
736.031	5.14
736.78	5.21
737.528	5.24
738.277	5.28
739.026	5.31
739.774	5.33
740.523	5.33
741.271	5.37
742.019	5.38
742.767	5.4
743.516	5.36
744.264	5.41
745.011	5.48
745.759	5.46
746.507	5.52
747.255	5.49
748.002	5.5
748.75	5.54
749.497	5.55
750.245	5.56
750.992	5.58
751.739	5.63
752.486	5.62
753.234	5.61
753.981	5.59
754.727	5.6
755.474	5.59
756.221	5.56
756.968	5.57
757.714	5.56
758.461	5.59
759.207	5.6
759.953	5.52
760.7	5.51
761.446	5.56
762.192	5.61
762.938	5.62
763.684	5.69
764.43	5.68
765.175	5.68
765.921	5.63
766.667	5.61
767.412	5.59
768.158	5.6
768.903	5.61
769.648	5.62
770.393	5.65
771.139	5.65
771.884	5.69
772.628	5.63
773.373	5.62
774.118	5.61
774.863	5.61
775.607	5.58
776.352	5.63
777.096	5.66
777.841	5.66
778.585	5.68
779.329	5.68
780.073	5.67
780.817	5.72
781.561	5.73
782.305	5.75
783.049	5.82
783.793	5.82
784.536	5.84
785.28	5.9
786.023	5.94
786.767	6
787.51	6
788.253	6.04
788.997	6.12
789.74	6.16
790.483	6.18
791.225	6.2
791.968	6.21
792.711	6.24
793.454	6.25
794.196	6.3
794.939	6.32
795.681	6.39
796.423	6.43
797.166	6.53
797.908	6.48
798.65	6.53
799.392	6.58
800.134	6.58
800.876	6.64
801.617	6.69
802.359	6.71
803.101	6.74
803.842	6.74
804.584	6.82
805.325	6.85
806.066	6.87
806.807	6.93
807.548	6.95
808.289	7
809.03	7.04
809.771	7.07
810.512	7.09
811.253	7.17
811.993	7.14
812.734	7.15
813.474	7.29
814.215	7.34
814.955	7.37
815.695	7.37
816.435	7.38
817.175	7.4
817.915	7.36
818.655	7.38
819.395	7.53
820.134	7.61
820.874	7.7
821.613	7.81
822.353	7.91
823.092	7.91
823.832	7.89
824.571	7.9
825.31	7.92
826.049	7.97
826.788	8.2
827.527	8.33
828.265	8.29
829.004	8.14
829.743	8.05
830.481	8.06
831.22	8.15
831.958	8.27
832.696	8.38
833.435	8.54
834.173	8.68
834.911	8.69
835.649	8.71
836.387	8.7
837.124	8.68
837.862	8.73
838.6	8.76
839.337	8.83
840.075	9.04
840.812	9.19
841.549	9.27
842.286	9.39
843.024	9.3
843.761	9.33
844.498	9.28
845.234	9.35
845.971	9.53
846.708	9.58
847.444	9.69
848.181	9.79
848.917	9.75
849.654	9.89
850.39	9.91
851.126	10.05
851.862	10.15
852.598	10.28
853.334	10.44
854.07	10.52
854.806	10.52
855.542	10.75
856.277	10.94
857.013	11.08
857.748	11.12
858.484	11.31
859.219	11.26
859.954	11.29
860.689	11.17
861.424	11.29
862.159	11.45
862.894	11.47
863.629	11.41
864.364	11.52
865.098	11.66
865.833	11.65
866.567	11.76
867.301	11.82
868.036	11.82
868.77	11.96
869.504	12.09
870.238	12.14
870.972	12.2
871.706	12.21
872.44	12.34
873.173	12.48
873.907	12.62
874.64	12.63
875.374	12.56
876.107	12.49
876.84	12.45
877.574	12.44
878.307	12.71
879.04	12.9
879.773	13.02
880.506	13.21
881.238	13.43
881.971	13.6
882.704	13.7
883.436	13.73
884.168	13.68
884.901	13.79
885.633	13.97
886.365	14.03
887.097	14.18
887.829	14.53
888.561	14.78
889.293	14.94
890.025	15.1
890.756	15.13
891.488	15.57
892.22	15.86
892.951	16.25
893.682	16.72
894.414	17.1
895.145	17.26
895.876	17.27
896.607	17.52
897.338	17.71
898.068	17.8
898.799	18.18
899.53	18.3
900.26	18.42
900.991	18.86
901.721	19.23
902.452	19.6
903.182	19.87
903.912	20.46
904.642	20.56
905.372	20.52
906.102	20.47
906.832	20.47
907.561	20.64
908.291	20.66
909.021	20.82
909.75	21.06
910.479	21.19
911.209	21.25
911.938	21.57
912.667	21.93
913.396	22.27
914.125	22.8
914.854	23.2
915.583	23.56
916.311	23.8
917.04	23.79
917.769	23.94
918.497	24.12
919.225	24.15
919.954	24.26
920.682	24.46
921.41	24.38
922.138	24.74
922.866	24.7
923.594	24.9
924.321	24.93
925.049	24.93
925.777	25.18
926.504	25.58
927.232	25.61
927.959	25.84
928.686	25.77
929.413	25.88
930.14	25.82
930.867	25.27
931.594	25.9
932.321	25.97
933.048	26.02
933.775	26.29
934.501	26.48
935.228	26.08
935.954	26.44
936.68	26.83
937.406	26.7
938.133	26.98
938.859	26.53
939.585	26.39
940.311	27.38
941.036	26.99
941.762	26.93
942.488	27.76
943.213	27.53
943.939	28.22
944.664	28.26
945.389	28.2
946.114	29.26
946.84	28.63
947.565	30.03
948.29	30.07
949.014	30.5
949.739	30.58
950.464	30.34
951.188	29.94
951.913	30.07
952.637	30.31
953.362	28.99
954.086	29.24
954.81	27.09
955.534	27.29
956.258	26.04
956.982	25.7
957.706	25.44
958.43	24.28
959.153	23.86
959.877	23.94
960.6	22.24
961.324	22.78
962.047	23.37
962.77	24.83
963.493	22.12
964.216	26.17
964.939	22.16
965.662	24.16
966.385	25.6
967.108	23.5
967.83	24.83
968.553	23.99
969.275	20.81
969.998	23.44
970.72	23.12
971.442	21.31
972.164	23.6
972.886	25.32
973.608	26.43
974.33	22.99
975.052	27.13
975.773	29.21
976.495	30.45
977.216	29.91
977.938	29.81
978.659	28.42
979.38	26.71
980.101	25.4
980.822	22.36
981.543	21.11
982.264	22.37
982.985	19.38
983.706	18.04
984.426	19.42
985.147	20.53
985.867	21.93
986.588	22.73
987.308	21.46
988.028	26.84
988.748	26.79
989.468	27.46
990.188	40
990.908	-18.18
991.628	113.04
992.347	123.08
