         Index            Ts             t            HF        Weight            Tr
           [#]          [°C]           [s]       [Wg^-1]           [%]          [°C]
             0   4.41201e+01   0.00000e+00   9.25151e+00   1.00299e+02   2.50000e+01
             1   4.48975e+01   1.00000e+00   9.52186e+00   1.00251e+02   2.51667e+01
             2   4.56774e+01   2.00000e+00   9.85224e+00   1.00213e+02   2.53333e+01
             3   4.64437e+01   3.00000e+00   1.02088e+01   1.00175e+02   2.55000e+01
             4   4.71966e+01   4.00000e+00   1.05351e+01   1.00131e+02   2.56667e+01
             5   4.79372e+01   5.00000e+00   1.08392e+01   1.00096e+02   2.58333e+01
             6   4.86615e+01   6.00000e+00   1.11290e+01   1.00065e+02   2.60000e+01
             7   4.93701e+01   7.00000e+00   1.14095e+01   1.00030e+02   2.61667e+01
             8   5.00378e+01   8.00000e+00   1.16940e+01   1.00026e+02   2.63333e+01
             9   5.07035e+01   9.00000e+00   1.19844e+01   1.00005e+02   2.65000e+01
            10   5.13604e+01   1.00000e+01   1.22796e+01   9.99853e+01   2.66667e+01
            11   5.19782e+01   1.10000e+01   1.25712e+01   9.99770e+01   2.68333e+01
            12   5.25872e+01   1.20000e+01   1.28032e+01   9.99193e+01   2.70000e+01
            13   5.31722e+01   1.30000e+01   1.30589e+01   9.98752e+01   2.71667e+01
            14   5.37510e+01   1.40000e+01   1.33207e+01   9.98331e+01   2.73333e+01
            15   5.43063e+01   1.50000e+01   1.35717e+01   9.97916e+01   2.75000e+01
            16   5.48509e+01   1.60000e+01   1.37723e+01   9.97454e+01   2.76667e+01
            17   5.53871e+01   1.70000e+01   1.39904e+01   9.97009e+01   2.78333e+01
            18   5.59131e+01   1.80000e+01   1.42068e+01   9.96661e+01   2.80000e+01
            19   5.64102e+01   1.90000e+01   1.44203e+01   9.96509e+01   2.81667e+01
            20   5.68952e+01   2.00000e+01   1.45913e+01   9.96383e+01   2.83333e+01
            21   5.73626e+01   2.10000e+01   1.47837e+01   9.96179e+01   2.85000e+01
            22   5.78229e+01   2.20000e+01   1.49801e+01   9.96016e+01   2.86667e+01
            23   5.82777e+01   2.30000e+01   1.51673e+01   9.95735e+01   2.88333e+01
            24   5.87080e+01   2.40000e+01   1.53104e+01   9.95055e+01   2.90000e+01
            25   5.91361e+01   2.50000e+01   1.54749e+01   9.94575e+01   2.91667e+01
            26   5.95544e+01   2.60000e+01   1.56442e+01   9.94159e+01   2.93333e+01
            27   5.99561e+01   2.70000e+01   1.58051e+01   9.93773e+01   2.95000e+01
            28   6.03402e+01   2.80000e+01   1.59233e+01   9.93346e+01   2.96667e+01
            29   6.07279e+01   2.90000e+01   1.60587e+01   9.93023e+01   2.98333e+01
            30   6.10896e+01   3.00000e+01   1.61932e+01   9.92877e+01   3.00000e+01
            31   6.14408e+01   3.10000e+01   1.63244e+01   9.92711e+01   3.01667e+01
            32   6.17904e+01   3.20000e+01   1.64197e+01   9.92538e+01   3.03333e+01
            33   6.21195e+01   3.30000e+01   1.65318e+01   9.92294e+01   3.05000e+01
            34   6.24359e+01   3.40000e+01   1.66476e+01   9.92019e+01   3.06667e+01
            35   6.27702e+01   3.50000e+01   1.67681e+01   9.91723e+01   3.08333e+01
            36   6.30707e+01   3.60000e+01   1.68353e+01   9.91293e+01   3.10000e+01
            37   6.33653e+01   3.70000e+01   1.69316e+01   9.90943e+01   3.11667e+01
            38   6.36524e+01   3.80000e+01   1.70278e+01   9.90642e+01   3.13333e+01
            39   6.39411e+01   3.90000e+01   1.71281e+01   9.90377e+01   3.15000e+01
            40   6.42071e+01   4.00000e+01   1.71770e+01   9.90148e+01   3.16667e+01
            41   6.44730e+01   4.10000e+01   1.72545e+01   9.89924e+01   3.18333e+01
            42   6.47298e+01   4.20000e+01   1.73286e+01   9.89712e+01   3.20000e+01
            43   6.49851e+01   4.30000e+01   1.73998e+01   9.89504e+01   3.21667e+01
            44   6.52185e+01   4.40000e+01   1.74382e+01   9.89347e+01   3.23333e+01
            45   6.54505e+01   4.50000e+01   1.74922e+01   9.89143e+01   3.25000e+01
            46   6.56784e+01   4.60000e+01   1.75512e+01   9.88908e+01   3.26667e+01
            47   6.58942e+01   4.70000e+01   1.76154e+01   9.88648e+01   3.28333e+01
            48   6.61026e+01   4.80000e+01   1.76376e+01   9.88372e+01   3.30000e+01
            49   6.63015e+01   4.90000e+01   1.76750e+01   9.88142e+01   3.31667e+01
            50   6.65017e+01   5.00000e+01   1.77141e+01   9.87936e+01   3.33333e+01
            51   6.66794e+01   5.10000e+01   1.77518e+01   9.87745e+01   3.35000e+01
            52   6.68656e+01   5.20000e+01   1.77695e+01   9.87630e+01   3.36667e+01
            53   6.70557e+01   5.30000e+01   1.77948e+01   9.87518e+01   3.38333e+01
            54   6.72309e+01   5.40000e+01   1.78199e+01   9.87418e+01   3.40000e+01
            55   6.73855e+01   5.50000e+01   1.78433e+01   9.87315e+01   3.41667e+01
            56   6.75492e+01   5.60000e+01   1.78471e+01   9.87233e+01   3.43333e+01
            57   6.76833e+01   5.70000e+01   1.78582e+01   9.87094e+01   3.45000e+01
            58   6.78383e+01   5.80000e+01   1.78692e+01   9.86929e+01   3.46667e+01
            59   6.79848e+01   5.90000e+01   1.78788e+01   9.86754e+01   3.48333e+01
            60   6.81156e+01   6.00000e+01   1.78700e+01   9.86513e+01   3.50000e+01
            61   6.82387e+01   6.10000e+01   1.78686e+01   9.86329e+01   3.51667e+01
            62   6.83695e+01   6.20000e+01   1.78669e+01   9.86177e+01   3.53333e+01
            63   6.84747e+01   6.30000e+01   1.78636e+01   9.86045e+01   3.55000e+01
            64   6.85896e+01   6.40000e+01   1.78430e+01   9.86012e+01   3.56667e+01
            65   6.86983e+01   6.50000e+01   1.78295e+01   9.85967e+01   3.58333e+01
            66   6.87943e+01   6.60000e+01   1.78157e+01   9.85905e+01   3.60000e+01
            67   6.88985e+01   6.70000e+01   1.78006e+01   9.85828e+01   3.61667e+01
            68   6.89942e+01   6.80000e+01   1.77694e+01   9.85771e+01   3.63333e+01
            69   6.90805e+01   6.90000e+01   1.77445e+01   9.85648e+01   3.65000e+01
            70   6.91658e+01   7.00000e+01   1.77194e+01   9.85495e+01   3.66667e+01
            71   6.92328e+01   7.10000e+01   1.76930e+01   9.85329e+01   3.68333e+01
            72   6.93093e+01   7.20000e+01   1.76517e+01   9.85091e+01   3.70000e+01
            73   6.93910e+01   7.30000e+01   1.76166e+01   9.84949e+01   3.71667e+01
            74   6.94425e+01   7.40000e+01   1.75812e+01   9.84830e+01   3.73333e+01
            75   6.95092e+01   7.50000e+01   1.75446e+01   9.84682e+01   3.75000e+01
            76   6.95616e+01   7.60000e+01   1.74938e+01   9.84802e+01   3.76667e+01
            77   6.96147e+01   7.70000e+01   1.74487e+01   9.84786e+01   3.78333e+01
            78   6.96560e+01   7.80000e+01   1.74034e+01   9.84728e+01   3.80000e+01
            79   6.97026e+01   7.90000e+01   1.73571e+01   9.84656e+01   3.81667e+01
            80   6.97436e+01   8.00000e+01   1.72983e+01   9.84540e+01   3.83333e+01
            81   6.97944e+01   8.10000e+01   1.72447e+01   9.84415e+01   3.85000e+01
            82   6.98171e+01   8.20000e+01   1.71909e+01   9.84282e+01   3.86667e+01
            83   6.98468e+01   8.30000e+01   1.71360e+01   9.84152e+01   3.88333e+01
            84   6.98617e+01   8.40000e+01   1.70691e+01   9.84017e+01   3.90000e+01
            85   6.98832e+01   8.50000e+01   1.70072e+01   9.83943e+01   3.91667e+01
            86   6.99073e+01   8.60000e+01   1.69454e+01   9.83899e+01   3.93333e+01
            87   6.99194e+01   8.70000e+01   1.68826e+01   9.83860e+01   3.95000e+01
            88   6.99343e+01   8.80000e+01   1.68093e+01   9.83883e+01   3.96667e+01
            89   6.99558e+01   8.90000e+01   1.67400e+01   9.83842e+01   3.98333e+01
            90   6.99555e+01   9.00000e+01   1.66706e+01   9.83781e+01   4.00000e+01
            91   6.99633e+01   9.10000e+01   1.66004e+01   9.83714e+01   4.01667e+01
            92   6.99535e+01   9.20000e+01   1.65201e+01   9.83570e+01   4.03333e+01
            93   6.99604e+01   9.30000e+01   1.64440e+01   9.83453e+01   4.05000e+01
            94   6.99552e+01   9.40000e+01   1.63677e+01   9.83353e+01   4.06667e+01
            95   6.99529e+01   9.50000e+01   1.62906e+01   9.83259e+01   4.08333e+01
            96   6.99389e+01   9.60000e+01   1.62041e+01   9.83174e+01   4.10000e+01
            97   6.99197e+01   9.70000e+01   1.61212e+01   9.83104e+01   4.11667e+01
            98   6.99047e+01   9.80000e+01   1.60383e+01   9.83043e+01   4.13333e+01
            99   6.98933e+01   9.90000e+01   1.59547e+01   9.82990e+01   4.15000e+01
           100   6.98673e+01   1.00000e+02   1.58625e+01   9.82975e+01   4.16667e+01
           101   6.98555e+01   1.01000e+02   1.57739e+01   9.82936e+01   4.18333e+01
           102   6.98252e+01   1.02000e+02   1.56852e+01   9.82893e+01   4.20000e+01
           103   6.97937e+01   1.03000e+02   1.55958e+01   9.82849e+01   4.21667e+01
           104   6.97608e+01   1.04000e+02   1.54982e+01   9.82788e+01   4.23333e+01
           105   6.97283e+01   1.05000e+02   1.54041e+01   9.82729e+01   4.25000e+01
           106   6.96908e+01   1.06000e+02   1.53098e+01   9.82668e+01   4.26667e+01
           107   6.96566e+01   1.07000e+02   1.52148e+01   9.82602e+01   4.28333e+01
           108   6.96179e+01   1.08000e+02   1.51127e+01   9.82533e+01   4.30000e+01
           109   6.95811e+01   1.09000e+02   1.50134e+01   9.82481e+01   4.31667e+01
           110   6.95414e+01   1.10000e+02   1.49141e+01   9.82449e+01   4.33333e+01
           111   6.94935e+01   1.11000e+02   1.48142e+01   9.82433e+01   4.35000e+01
           112   6.94493e+01   1.12000e+02   1.47073e+01   9.82422e+01   4.36667e+01
           113   6.94073e+01   1.13000e+02   1.46031e+01   9.82393e+01   4.38333e+01
           114   6.93578e+01   1.14000e+02   1.44989e+01   9.82357e+01   4.40000e+01
           115   6.92911e+01   1.15000e+02   1.43942e+01   9.82317e+01   4.41667e+01
           116   6.92361e+01   1.16000e+02   1.42830e+01   9.82262e+01   4.43333e+01
           117   6.91797e+01   1.17000e+02   1.41745e+01   9.82213e+01   4.45000e+01
           118   6.91247e+01   1.18000e+02   1.40662e+01   9.82164e+01   4.46667e+01
           119   6.90716e+01   1.19000e+02   1.39575e+01   9.82114e+01   4.48333e+01
           120   6.90082e+01   1.20000e+02   1.38432e+01   9.82072e+01   4.50000e+01
           121   6.89431e+01   1.21000e+02   1.37311e+01   9.82048e+01   4.51667e+01
           122   6.88734e+01   1.22000e+02   1.36188e+01   9.82031e+01   4.53333e+01
           123   6.88102e+01   1.23000e+02   1.35062e+01   9.82005e+01   4.55000e+01
           124   6.87494e+01   1.24000e+02   1.33888e+01   9.81980e+01   4.56667e+01
           125   6.86816e+01   1.25000e+02   1.32733e+01   9.81938e+01   4.58333e+01
           126   6.86133e+01   1.26000e+02   1.31578e+01   9.81886e+01   4.60000e+01
           127   6.85475e+01   1.27000e+02   1.30419e+01   9.81826e+01   4.61667e+01
           128   6.84808e+01   1.28000e+02   1.29215e+01   9.81741e+01   4.63333e+01
           129   6.84010e+01   1.29000e+02   1.28028e+01   9.81691e+01   4.65000e+01
           130   6.83223e+01   1.30000e+02   1.26841e+01   9.81661e+01   4.66667e+01
           131   6.82451e+01   1.31000e+02   1.25649e+01   9.81643e+01   4.68333e+01
           132   6.81777e+01   1.32000e+02   1.24417e+01   9.81688e+01   4.70000e+01
           133   6.80944e+01   1.33000e+02   1.23203e+01   9.81705e+01   4.71667e+01
           134   6.80166e+01   1.34000e+02   1.21990e+01   9.81697e+01   4.73333e+01
           135   6.79450e+01   1.35000e+02   1.20774e+01   9.81674e+01   4.75000e+01
           136   6.78574e+01   1.36000e+02   1.19523e+01   9.81656e+01   4.76667e+01
           137   6.77750e+01   1.37000e+02   1.18287e+01   9.81618e+01   4.78333e+01
           138   6.76878e+01   1.38000e+02   1.17052e+01   9.81571e+01   4.80000e+01
           139   6.76051e+01   1.39000e+02   1.15816e+01   9.81524e+01   4.81667e+01
           140   6.75162e+01   1.40000e+02   1.14553e+01   9.81456e+01   4.83333e+01
           141   6.74433e+01   1.41000e+02   1.13306e+01   9.81420e+01   4.85000e+01
           142   6.73545e+01   1.42000e+02   1.12062e+01   9.81399e+01   4.86667e+01
           143   6.72623e+01   1.43000e+02   1.10819e+01   9.81386e+01   4.88333e+01
           144   6.71901e+01   1.44000e+02   1.09563e+01   9.81382e+01   4.90000e+01
           145   6.70940e+01   1.45000e+02   1.08318e+01   9.81344e+01   4.91667e+01
           146   6.70094e+01   1.46000e+02   1.07078e+01   9.81299e+01   4.93333e+01
           147   6.69218e+01   1.47000e+02   1.05840e+01   9.81252e+01   4.95000e+01
           148   6.68349e+01   1.48000e+02   1.04609e+01   9.81171e+01   4.96667e+01
           149   6.67617e+01   1.49000e+02   1.03382e+01   9.81127e+01   4.98333e+01
           150   6.66793e+01   1.50000e+02   1.02161e+01   9.81100e+01   5.00000e+01
           151   6.65944e+01   1.51000e+02   1.00946e+01   9.81079e+01   5.01667e+01
           152   6.65240e+01   1.52000e+02   9.97650e+00   9.81110e+01   5.03333e+01
           153   6.64479e+01   1.53000e+02   9.85796e+00   9.81121e+01   5.05000e+01
           154   6.63756e+01   1.54000e+02   9.74020e+00   9.81126e+01   5.06667e+01
           155   6.63037e+01   1.55000e+02   9.62316e+00   9.81131e+01   5.08333e+01
           156   6.62434e+01   1.56000e+02   9.51162e+00   9.81131e+01   5.10000e+01
           157   6.61734e+01   1.57000e+02   9.39862e+00   9.81113e+01   5.11667e+01
           158   6.61168e+01   1.58000e+02   9.28645e+00   9.81092e+01   5.13333e+01
           159   6.60569e+01   1.59000e+02   9.17515e+00   9.81072e+01   5.15000e+01
           160   6.60117e+01   1.60000e+02   9.07229e+00   9.81026e+01   5.16667e+01
           161   6.59719e+01   1.61000e+02   8.96674e+00   9.81007e+01   5.18333e+01
           162   6.59277e+01   1.62000e+02   8.86181e+00   9.81001e+01   5.20000e+01
           163   6.58867e+01   1.63000e+02   8.75779e+00   9.81003e+01   5.21667e+01
           164   6.58580e+01   1.64000e+02   8.66381e+00   9.81050e+01   5.23333e+01
           165   6.58225e+01   1.65000e+02   8.56657e+00   9.81084e+01   5.25000e+01
           166   6.57994e+01   1.66000e+02   8.47013e+00   9.81109e+01   5.26667e+01
           167   6.57766e+01   1.67000e+02   8.37482e+00   9.81129e+01   5.28333e+01
           168   6.57535e+01   1.68000e+02   8.29046e+00   9.81152e+01   5.30000e+01
           169   6.57564e+01   1.69000e+02   8.20195e+00   9.81158e+01   5.31667e+01
           170   6.57545e+01   1.70000e+02   8.11394e+00   9.81154e+01   5.33333e+01
           171   6.57477e+01   1.71000e+02   8.02707e+00   9.81148e+01   5.35000e+01
           172   6.57428e+01   1.72000e+02   7.95277e+00   9.81121e+01   5.36667e+01
           173   6.57620e+01   1.73000e+02   7.87369e+00   9.81126e+01   5.38333e+01
           174   6.57841e+01   1.74000e+02   7.79492e+00   9.81151e+01   5.40000e+01
           175   6.58010e+01   1.75000e+02   7.71735e+00   9.81186e+01   5.41667e+01
           176   6.58183e+01   1.76000e+02   7.65221e+00   9.81270e+01   5.43333e+01
           177   6.58323e+01   1.77000e+02   7.58222e+00   9.81338e+01   5.45000e+01
           178   6.58681e+01   1.78000e+02   7.51247e+00   9.81399e+01   5.46667e+01
           179   6.58932e+01   1.79000e+02   7.44367e+00   9.81449e+01   5.48333e+01
           180   6.59417e+01   1.80000e+02   7.38690e+00   9.81469e+01   5.50000e+01
           181   6.60006e+01   1.81000e+02   7.32516e+00   9.81468e+01   5.51667e+01
           182   6.60393e+01   1.82000e+02   7.26358e+00   9.81454e+01   5.53333e+01
           183   6.60826e+01   1.83000e+02   7.20294e+00   9.81435e+01   5.55000e+01
           184   6.61623e+01   1.84000e+02   7.15379e+00   9.81367e+01   5.56667e+01
           185   6.62108e+01   1.85000e+02   7.09982e+00   9.81358e+01   5.58333e+01
           186   6.62776e+01   1.86000e+02   7.04585e+00   9.81374e+01   5.60000e+01
           187   6.63410e+01   1.87000e+02   6.99271e+00   9.81400e+01   5.61667e+01
           188   6.63996e+01   1.88000e+02   6.94951e+00   9.81499e+01   5.63333e+01
           189   6.64739e+01   1.89000e+02   6.90247e+00   9.81564e+01   5.65000e+01
           190   6.65500e+01   1.90000e+02   6.85546e+00   9.81616e+01   5.66667e+01
           191   6.66347e+01   1.91000e+02   6.80916e+00   9.81662e+01   5.68333e+01
           192   6.67206e+01   1.92000e+02   6.77244e+00   9.81682e+01   5.70000e+01
           193   6.68017e+01   1.93000e+02   6.73165e+00   9.81683e+01   5.71667e+01
           194   6.68830e+01   1.94000e+02   6.69082e+00   9.81677e+01   5.73333e+01
           195   6.69804e+01   1.95000e+02   6.65073e+00   9.81672e+01   5.75000e+01
           196   6.70738e+01   1.96000e+02   6.61914e+00   9.81627e+01   5.76667e+01
           197   6.71721e+01   1.97000e+02   6.58388e+00   9.81627e+01   5.78333e+01
           198   6.72711e+01   1.98000e+02   6.54844e+00   9.81648e+01   5.80000e+01
           199   6.73576e+01   1.99000e+02   6.51360e+00   9.81679e+01   5.81667e+01
           200   6.74664e+01   2.00000e+02   6.48575e+00   9.81765e+01   5.83333e+01
           201   6.75803e+01   2.01000e+02   6.45493e+00   9.81819e+01   5.85000e+01
           202   6.76770e+01   2.02000e+02   6.42423e+00   9.81856e+01   5.86667e+01
           203   6.77883e+01   2.03000e+02   6.39413e+00   9.81882e+01   5.88333e+01
           204   6.79052e+01   2.04000e+02   6.37043e+00   9.81881e+01   5.90000e+01
           205   6.80207e+01   2.05000e+02   6.34407e+00   9.81869e+01   5.91667e+01
           206   6.81226e+01   2.06000e+02   6.31750e+00   9.81847e+01   5.93333e+01
           207   6.82317e+01   2.07000e+02   6.29125e+00   9.81820e+01   5.95000e+01
           208   6.83583e+01   2.08000e+02   6.27001e+00   9.81766e+01   5.96667e+01
           209   6.84628e+01   2.09000e+02   6.24674e+00   9.81754e+01   5.98333e+01
           210   6.85901e+01   2.10000e+02   6.22342e+00   9.81764e+01   6.00000e+01
           211   6.87167e+01   2.11000e+02   6.20052e+00   9.81786e+01   6.01667e+01
           212   6.88440e+01   2.12000e+02   6.18221e+00   9.81864e+01   6.03333e+01
           213   6.89625e+01   2.13000e+02   6.16180e+00   9.81914e+01   6.05000e+01
           214   6.90947e+01   2.14000e+02   6.14140e+00   9.81950e+01   6.06667e+01
           215   6.92122e+01   2.15000e+02   6.12131e+00   9.81976e+01   6.08333e+01
           216   6.93281e+01   2.16000e+02   6.10445e+00   9.81968e+01   6.10000e+01
           217   6.94625e+01   2.17000e+02   6.08662e+00   9.81945e+01   6.11667e+01
           218   6.95862e+01   2.18000e+02   6.06884e+00   9.81913e+01   6.13333e+01
           219   6.97204e+01   2.19000e+02   6.05139e+00   9.81877e+01   6.15000e+01
           220   6.98450e+01   2.20000e+02   6.03717e+00   9.81804e+01   6.16667e+01
           221   6.99684e+01   2.21000e+02   6.02138e+00   9.81784e+01   6.18333e+01
           222   7.01094e+01   2.22000e+02   6.00548e+00   9.81790e+01   6.20000e+01
           223   7.02461e+01   2.23000e+02   5.98969e+00   9.81809e+01   6.21667e+01
           224   7.03740e+01   2.24000e+02   5.97706e+00   9.81893e+01   6.23333e+01
           225   7.05215e+01   2.25000e+02   5.96298e+00   9.81940e+01   6.25000e+01
           226   7.06530e+01   2.26000e+02   5.94867e+00   9.81973e+01   6.26667e+01
           227   7.07871e+01   2.27000e+02   5.93456e+00   9.81997e+01   6.28333e+01
           228   7.09300e+01   2.28000e+02   5.92256e+00   9.81988e+01   6.30000e+01
           229   7.10573e+01   2.29000e+02   5.90969e+00   9.81969e+01   6.31667e+01
           230   7.11914e+01   2.30000e+02   5.89689e+00   9.81945e+01   6.33333e+01
           231   7.13311e+01   2.31000e+02   5.88428e+00   9.81922e+01   6.35000e+01
           232   7.14652e+01   2.32000e+02   5.87300e+00   9.81867e+01   6.36667e+01
